Time,Channel A,Channel B
(us),(V),(V)

-96.96000052,-0.03912473,-0.34311960
-96.88000052,-0.05658132,-0.36069830
-96.80000052,-0.07403790,-0.38706620
-96.72000052,-0.09149449,-0.39585560
-96.64000052,-0.10895110,-0.41343420
-96.56000052,-0.11767940,-0.42222360
-96.48000052,-0.13513600,-0.43101290
-96.40000052,-0.14386430,-0.43977170
-96.32000052,-0.16132080,-0.45735040
-96.24000052,-0.17874690,-0.46613970
-96.16000052,-0.19620350,-0.47492900
-96.08000052,-0.20493180,-0.48371840
-96.00000053,-0.23111670,-0.49250770
-95.92000053,-0.23984500,-0.50129710
-95.84000053,-0.24857330,-0.50129710
-95.76000053,-0.26602980,-0.50129710
-95.68000053,-0.27475810,-0.51008640
-95.60000053,-0.28348640,-0.51887570
-95.52000053,-0.30094300,-0.51887570
-95.44000053,-0.30094300,-0.51887570
-95.36000053,-0.31839960,-0.51887570
-95.28000053,-0.32712790,-0.52766500
-95.20000053,-0.33585620,-0.52766500
-95.12000053,-0.34458450,-0.52766500
-95.04000053,-0.35331280,-0.52766500
-94.96000053,-0.36201060,-0.51887570
-94.88000053,-0.37073890,-0.51887570
-94.80000053,-0.37073890,-0.51008640
-94.72000053,-0.37946720,-0.50129710
-94.64000053,-0.38819550,-0.50129710
-94.56000053,-0.38819550,-0.50129710
-94.48000053,-0.38819550,-0.49250770
-94.40000053,-0.39692370,-0.49250770
-94.32000054,-0.39692370,-0.48371840
-94.24000054,-0.40565200,-0.46613970
-94.16000054,-0.40565200,-0.45735040
-94.08000054,-0.40565200,-0.43977170
-94.00000054,-0.40565200,-0.43101290
-93.92000054,-0.40565200,-0.42222360
-93.84000054,-0.40565200,-0.40464490
-93.76000054,-0.40565200,-0.39585560
-93.68000054,-0.39692370,-0.37827690
-93.60000054,-0.38819550,-0.35190890
-93.52000054,-0.38819550,-0.33433030
-93.44000054,-0.38819550,-0.31675160
-93.36000054,-0.37946720,-0.29917290
-93.28000054,-0.37073890,-0.29041410
-93.20000054,-0.37073890,-0.28162480
-93.12000054,-0.36201060,-0.26404610
-93.04000054,-0.35331280,-0.24646750
-92.96000054,-0.34458450,-0.22009950
-92.88000054,-0.33585620,-0.20252080
-92.80000054,-0.32712790,-0.18494220
-92.72000054,-0.31839960,-0.16736350
-92.64000055,-0.30967130,-0.14981540
-92.56000055,-0.30094300,-0.12344740
-92.48000055,-0.29221470,-0.11465800
-92.40000055,-0.28348640,-0.08829005
-92.32000055,-0.26602980,-0.07071139
-92.24000055,-0.24857330,-0.04434339
-92.16000055,-0.24857330,-0.02676473
-92.08000055,-0.23111670,-0.00045778
-92.00000055,-0.21366010,0.01712088
-91.92000055,-0.20493180,0.02591021
-91.84000055,-0.19620350,0.05227821
-91.76000055,-0.17874690,0.06106754
-91.68000055,-0.16132080,0.09622486
-91.60000055,-0.14386430,0.11380350
-91.52000055,-0.12640770,0.13138220
-91.44000055,-0.11767940,0.16650900
-91.36000055,-0.10022280,0.17529830
-91.28000055,-0.09149449,0.20166630
-91.20000055,-0.07403790,0.21045560
-91.12000055,-0.05658132,0.22803430
-91.04000056,-0.03912473,0.25440230
-90.96000056,-0.02166814,0.27198090
-90.88000056,-0.00421155,0.29831840
-90.80000056,0.01321451,0.31589710
-90.72000056,0.03064058,0.33347570
-90.64000056,0.03936888,0.34226510
-90.56000056,0.05682547,0.35984370
-90.48000056,0.07428205,0.37742240
-90.40000056,0.09173864,0.38621170
-90.32000056,0.10046690,0.41257970
-90.24000056,0.11792350,0.42133850
-90.16000056,0.13538010,0.43891720
-90.08000056,0.15283670,0.45649590
-90.00000056,0.16156500,0.46528520
-89.92000056,0.18774990,0.47407450
-89.84000056,0.19647820,0.48286380
-89.76000056,0.20517590,0.49165320
-89.68000056,0.22263250,0.50923190
-89.60000056,0.24008910,0.51802120
-89.52000056,0.25754570,0.51802120
-89.44000056,0.26627400,0.52681050
-89.36000057,0.27500230,0.53559980
-89.28000057,0.29245890,0.54438920
-89.20000057,0.30118720,0.54438920
-89.12000057,0.30991550,0.54438920
-89.04000057,0.32737200,0.55317850
-88.96000057,0.32737200,0.55317850
-88.88000057,0.34482860,0.55317850
-88.80000057,0.36228520,0.55317850
-88.72000057,0.36228520,0.55317850
-88.64000057,0.37101350,0.55317850
-88.56000057,0.37974180,0.55317850
-88.48000057,0.37974180,0.52681050
-88.40000057,0.39716790,0.52681050
-88.32000057,0.39716790,0.52681050
-88.24000057,0.39716790,0.51802120
-88.16000057,0.40589620,0.51802120
-88.08000057,0.40589620,0.50923190
-88.00000057,0.41462450,0.50044250
-87.92000057,0.41462450,0.49165320
-87.84000057,0.41462450,0.48286380
-87.76000058,0.42335280,0.46528520
-87.68000058,0.41462450,0.45649590
-87.60000058,0.41462450,0.43891720
-87.52000058,0.41462450,0.42133850
-87.44000058,0.41462450,0.41257970
-87.36000058,0.41462450,0.40379040
-87.28000058,0.41462450,0.38621170
-87.20000058,0.39716790,0.35984370
-87.12000058,0.39716790,0.34226510
-87.04000058,0.39716790,0.31589710
-86.96000058,0.38843960,0.29831840
-86.88000058,0.37974180,0.27198090
-86.80000058,0.37974180,0.26319160
-86.72000058,0.36228520,0.24561300
-86.64000058,0.36228520,0.23682360
-86.56000058,0.34482860,0.21045560
-86.48000058,0.33610030,0.17529830
-86.40000058,0.32737200,0.14893030
-86.32000058,0.30991550,0.13138220
-86.24000058,0.30991550,0.10501420
-86.16000058,0.29245890,0.09622486
-86.08000059,0.28373060,0.06985687
-86.00000059,0.26627400,0.06106754
-85.92000059,0.25754570,0.02591021
-85.84000059,0.24008910,-0.00045778
-85.76000059,0.22263250,-0.02676473
-85.68000059,0.21390420,-0.05313272
-85.60000059,0.19647820,-0.07950072
-85.52000059,0.17902160,-0.09707938
-85.44000059,0.17029330,-0.10586870
-85.36000059,0.15283670,-0.11465800
-85.28000059,0.13538010,-0.14981540
-85.20000059,0.11792350,-0.17615280
-85.12000059,0.10046690,-0.20252080
-85.04000059,0.08301035,-0.22009950
-84.96000059,0.06555375,-0.24646750
-84.88000059,0.04809717,-0.25525680
-84.80000059,0.03064058,-0.27283550
-84.72000059,0.01321451,-0.29041410
-84.64000059,-0.00421155,-0.31675160
-84.56000059,-0.02166814,-0.33433030
-84.48000060,-0.03912473,-0.36069830
-84.40000060,-0.05658132,-0.36948760
-84.32000060,-0.07403790,-0.38706620
-84.24000060,-0.08276620,-0.39585560
-84.16000060,-0.09149449,-0.40464490
-84.08000060,-0.11767940,-0.41343420
-84.00000060,-0.12640770,-0.43101290
-83.92000060,-0.14386430,-0.44856100
-83.84000060,-0.16132080,-0.45735040
-83.76000060,-0.17874690,-0.46613970
-83.68000060,-0.19620350,-0.48371840
-83.60000060,-0.20493180,-0.48371840
-83.52000060,-0.22238840,-0.49250770
-83.44000060,-0.23111670,-0.50129710
-83.36000060,-0.24857330,-0.50129710
-83.28000060,-0.25730150,-0.51008640
-83.20000060,-0.27475810,-0.51008640
-83.12000060,-0.28348640,-0.51887570
-83.04000060,-0.30094300,-0.52766500
-82.96000060,-0.30967130,-0.52766500
-82.88000060,-0.31839960,-0.52766500
-82.80000061,-0.32712790,-0.52766500
-82.72000061,-0.33585620,-0.52766500
-82.64000061,-0.34458450,-0.52766500
-82.56000061,-0.35331280,-0.52766500
-82.48000061,-0.36201060,-0.52766500
-82.40000061,-0.37073890,-0.51887570
-82.32000061,-0.37073890,-0.51887570
-82.24000061,-0.37946720,-0.51008640
-82.16000061,-0.38819550,-0.51008640
-82.08000061,-0.38819550,-0.50129710
-82.00000061,-0.38819550,-0.49250770
-81.92000061,-0.39692370,-0.48371840
-81.84000061,-0.39692370,-0.46613970
-81.76000061,-0.40565200,-0.45735040
-81.68000061,-0.40565200,-0.45735040
-81.60000061,-0.40565200,-0.43977170
-81.52000061,-0.40565200,-0.43101290
-81.44000061,-0.40565200,-0.43101290
-81.36000061,-0.40565200,-0.41343420
-81.28000061,-0.40565200,-0.39585560
-81.20000061,-0.39692370,-0.37827690
-81.12000062,-0.39692370,-0.36069830
-81.04000062,-0.39692370,-0.35190890
-80.96000062,-0.38819550,-0.33433030
-80.88000062,-0.38819550,-0.32554090
-80.80000062,-0.37073890,-0.30796230
-80.72000062,-0.37073890,-0.28162480
-80.64000062,-0.37073890,-0.25525680
-80.56000062,-0.35331280,-0.23767820
-80.48000062,-0.35331280,-0.22009950
-80.40000062,-0.34458450,-0.21131020
-80.32000062,-0.33585620,-0.18494220
-80.24000062,-0.31839960,-0.17615280
-80.16000062,-0.31839960,-0.14981540
-80.08000062,-0.30094300,-0.13223670
-80.00000062,-0.29221470,-0.10586870
-79.92000062,-0.28348640,-0.07950072
-79.84000062,-0.26602980,-0.06192205
-79.76000062,-0.25730150,-0.04434339
-79.68000062,-0.24857330,-0.02676473
-79.60000062,-0.23111670,-0.00921659
-79.52000063,-0.22238840,-0.00045778
-79.44000063,-0.20493180,0.02591021
-79.36000063,-0.19620350,0.06106754
-79.28000063,-0.17874690,0.06985687
-79.20000063,-0.16132080,0.09622486
-79.12000063,-0.14386430,0.11380350
-79.04000063,-0.14386430,0.13138220
-78.96000063,-0.11767940,0.14893030
-78.88000063,-0.10895110,0.16650900
-78.80000063,-0.09149449,0.18408760
-78.72000063,-0.07403790,0.20166630
-78.64000063,-0.05658132,0.23682360
-78.56000063,-0.03912473,0.24561300
-78.48000063,-0.02166814,0.27198090
-78.40000063,-0.00421155,0.28073980
-78.32000063,0.00451674,0.30710770
-78.24000063,0.02191229,0.31589710
-78.16000063,0.03936888,0.34226510
-78.08000063,0.04809717,0.35984370
-78.00000063,0.06555375,0.37742240
-77.92000063,0.08301035,0.38621170
-77.84000064,0.10046690,0.40379040
-77.76000064,0.11792350,0.42133850
-77.68000064,0.13538010,0.43012790
-77.60000064,0.14410840,0.44770650
-77.52000064,0.16156500,0.45649590
-77.44000064,0.17902160,0.46528520
-77.36000064,0.18774990,0.48286380
-77.28000064,0.20517590,0.49165320
-77.20000064,0.22263250,0.50923190
-77.12000064,0.24008910,0.51802120
-77.04000064,0.25754570,0.51802120
-76.96000064,0.25754570,0.52681050
-76.88000064,0.27500230,0.52681050
-76.80000064,0.29245890,0.53559980
-76.72000064,0.29245890,0.54438920
-76.64000064,0.30991550,0.54438920
-76.56000064,0.31864370,0.55317850
-76.48000064,0.32737200,0.55317850
-76.40000064,0.34482860,0.55317850
-76.32000064,0.35355690,0.55317850
-76.24000065,0.36228520,0.54438920
-76.16000065,0.37101350,0.54438920
-76.08000065,0.37974180,0.53559980
-76.00000065,0.38843960,0.54438920
-75.92000065,0.39716790,0.52681050
-75.84000065,0.39716790,0.52681050
-75.76000065,0.39716790,0.52681050
-75.68000065,0.40589620,0.52681050
-75.60000065,0.40589620,0.51802120
-75.52000065,0.41462450,0.50044250
-75.44000065,0.41462450,0.48286380
-75.36000065,0.41462450,0.48286380
-75.28000065,0.41462450,0.45649590
-75.20000065,0.41462450,0.45649590
-75.12000065,0.41462450,0.44770650
-75.04000065,0.41462450,0.43891720
-74.96000065,0.41462450,0.42133850
-74.88000065,0.41462450,0.40379040
-74.80000065,0.41462450,0.38621170
-74.72000065,0.40589620,0.36863310
-74.64000065,0.39716790,0.35105440
-74.56000066,0.39716790,0.33347570
-74.48000066,0.39716790,0.31589710
-74.40000066,0.38843960,0.30710770
-74.32000066,0.37974180,0.27198090
-74.24000066,0.37101350,0.23682360
-74.16000066,0.36228520,0.21924500
-74.08000066,0.35355690,0.19287700
-74.00000066,0.34482860,0.16650900
-73.92000066,0.32737200,0.14893030
-73.84000066,0.31864370,0.13138220
-73.76000066,0.30991550,0.12259290
-73.68000066,0.29245890,0.09622486
-73.60000066,0.27500230,0.06985687
-73.52000066,0.26627400,0.04348888
-73.44000066,0.25754570,0.01712088
-73.36000066,0.24008910,-0.00921659
-73.28000066,0.22263250,-0.01797540
-73.20000066,0.20517590,-0.03555406
-73.12000066,0.20517590,-0.04434339
-73.04000066,0.18774990,-0.07071139
-72.96000067,0.17029330,-0.09707938
-72.88000067,0.15283670,-0.12344740
-72.80000067,0.13538010,-0.14981540
-72.72000067,0.11792350,-0.17615280
-72.64000067,0.10046690,-0.19373150
-72.56000067,0.09173864,-0.21131020
-72.48000067,0.07428205,-0.22009950
-72.40000067,0.04809717,-0.23767820
-72.32000067,0.03064058,-0.26404610
-72.24000067,0.02191229,-0.29041410
-72.16000067,0.00451674,-0.30796230
-72.08000067,-0.00421155,-0.32554090
-72.00000067,-0.02166814,-0.34311960
-71.92000067,-0.03912473,-0.36069830
-71.84000067,-0.05658132,-0.36069830
-71.76000067,-0.07403790,-0.37827690
-71.68000067,-0.09149449,-0.39585560
-71.60000067,-0.10895110,-0.40464490
-71.52000067,-0.12640770,-0.42222360
-71.44000067,-0.14386430,-0.43101290
-71.36000067,-0.15259250,-0.44856100
-71.28000068,-0.17004910,-0.45735040
-71.20000068,-0.17874690,-0.46613970
-71.12000068,-0.19620350,-0.48371840
-71.04000068,-0.21366010,-0.50129710
-70.96000068,-0.23111670,-0.50129710
-70.88000068,-0.24857330,-0.51008640
-70.80000068,-0.25730150,-0.51008640
-70.72000068,-0.26602980,-0.52766500
-70.64000068,-0.28348640,-0.52766500
-70.56000068,-0.29221470,-0.52766500
-70.48000068,-0.30094300,-0.52766500
-70.40000068,-0.30967130,-0.52766500
-70.32000068,-0.31839960,-0.52766500
-70.24000068,-0.33585620,-0.52766500
-70.16000068,-0.33585620,-0.52766500
-70.08000068,-0.35331280,-0.51887570
-70.00000068,-0.35331280,-0.51887570
-69.92000068,-0.37073890,-0.51887570
-69.84000068,-0.37073890,-0.51887570
-69.76000068,-0.37073890,-0.51008640
-69.68000068,-0.38819550,-0.50129710
-69.60000069,-0.38819550,-0.50129710
-69.52000069,-0.38819550,-0.49250770
-69.44000069,-0.38819550,-0.48371840
-69.36000069,-0.39692370,-0.47492900
-69.28000069,-0.40565200,-0.46613970
-69.20000069,-0.39692370,-0.45735040
-69.12000069,-0.40565200,-0.44856100
-69.04000069,-0.40565200,-0.43101290
-68.96000069,-0.40565200,-0.42222360
-68.88000069,-0.40565200,-0.39585560
-68.80000069,-0.39692370,-0.39585560
-68.72000069,-0.39692370,-0.37827690
-68.64000069,-0.39692370,-0.36948760
-68.56000069,-0.39692370,-0.36069830
-68.48000069,-0.38819550,-0.35190890
-68.40000069,-0.38819550,-0.32554090
-68.32000069,-0.37946720,-0.30796230
-68.24000069,-0.37073890,-0.29041410
-68.16000069,-0.37073890,-0.27283550
-68.08000069,-0.35331280,-0.25525680
-68.00000070,-0.35331280,-0.24646750
-67.92000070,-0.35331280,-0.22888880
-67.84000070,-0.33585620,-0.21131020
-67.76000070,-0.32712790,-0.18494220
-67.68000070,-0.31839960,-0.15857420
-67.60000070,-0.30094300,-0.13223670
-67.52000070,-0.30094300,-0.11465800
-67.44000070,-0.28348640,-0.09707938
-67.36000070,-0.27475810,-0.07950072
-67.28000070,-0.26602980,-0.06192205
-67.20000070,-0.24857330,-0.04434339
-67.12000070,-0.23984500,-0.00921659
-67.04000070,-0.22238840,0.00833155
-66.96000070,-0.21366010,0.02591021
-66.88000070,-0.19620350,0.05227821
-66.80000070,-0.17874690,0.06985687
-66.72000070,-0.17004910,0.08743553
-66.64000070,-0.16132080,0.09622486
-66.56000070,-0.14386430,0.12259290
-66.48000070,-0.12640770,0.14893030
-66.40000070,-0.10895110,0.16650900
-66.32000071,-0.09149449,0.19287700
-66.24000071,-0.07403790,0.21045560
-66.16000071,-0.06530961,0.23682360
-66.08000071,-0.04785302,0.24561300
-66.00000071,-0.03039644,0.25440230
-65.92000071,-0.01293985,0.27198090
-65.84000071,0.00451674,0.28952910
-65.76000071,0.01321451,0.31589710
-65.68000071,0.03064058,0.33347570
-65.60000071,0.04809717,0.34226510
-65.52000071,0.06555375,0.36863310
-65.44000071,0.08301035,0.37742240
-65.36000071,0.09173864,0.39500110
-65.28000071,0.10919520,0.41257970
-65.20000071,0.12665180,0.42133850
-65.12000071,0.13538010,0.43891720
-65.04000071,0.15283670,0.44770650
-64.96000071,0.17029330,0.46528520
-64.88000071,0.18774990,0.48286380
-64.80000071,0.20517590,0.48286380
-64.72000072,0.21390420,0.49165320
-64.64000072,0.23136080,0.51802120
-64.56000072,0.24008910,0.51802120
-64.48000072,0.25754570,0.52681050
-64.40000072,0.27500230,0.53559980
-64.32000072,0.27500230,0.54438920
-64.24000072,0.29245890,0.54438920
-64.16000072,0.30991550,0.55317850
-64.08000072,0.31864370,0.55317850
-64.00000072,0.32737200,0.55317850
-63.92000072,0.34482860,0.55317850
-63.84000072,0.34482860,0.55317850
-63.76000072,0.36228520,0.55317850
-63.68000072,0.36228520,0.55317850
-63.60000072,0.37974180,0.55317850
-63.52000072,0.37974180,0.55317850
-63.44000072,0.39716790,0.55317850
-63.36000072,0.39716790,0.53559980
-63.28000072,0.39716790,0.52681050
-63.20000072,0.40589620,0.51802120
-63.12000072,0.41462450,0.50923190
-63.04000073,0.41462450,0.50044250
-62.96000073,0.41462450,0.49165320
-62.88000073,0.41462450,0.48286380
-62.80000073,0.41462450,0.48286380
-62.72000073,0.41462450,0.46528520
-62.64000073,0.41462450,0.44770650
-62.56000073,0.41462450,0.43012790
-62.48000073,0.41462450,0.41257970
-62.40000073,0.41462450,0.39500110
-62.32000073,0.41462450,0.37742240
-62.24000073,0.41462450,0.36863310
-62.16000073,0.40589620,0.35984370
-62.08000073,0.39716790,0.34226510
-62.00000073,0.39716790,0.31589710
-61.92000073,0.38843960,0.29831840
-61.84000073,0.37974180,0.27198090
-61.76000073,0.37101350,0.24561300
-61.68000073,0.36228520,0.22803430
-61.60000073,0.36228520,0.21045560
-61.52000073,0.34482860,0.20166630
-61.44000074,0.33610030,0.17529830
-61.36000074,0.31864370,0.14014100
-61.28000074,0.30991550,0.11380350
-61.20000074,0.29245890,0.08743553
-61.12000074,0.28373060,0.06106754
-61.04000074,0.27500230,0.04348888
-60.96000074,0.25754570,0.02591021
-60.88000074,0.24881740,0.00833155
-60.80000074,0.23136080,-0.00921659
-60.72000074,0.21390420,-0.03555406
-60.64000074,0.20517590,-0.06192205
-60.56000074,0.18774990,-0.08829005
-60.48000074,0.17029330,-0.11465800
-60.40000074,0.15283670,-0.13223670
-60.32000074,0.13538010,-0.14981540
-60.24000074,0.12665180,-0.15857420
-60.16000074,0.10046690,-0.17615280
-60.08000074,0.09173864,-0.21131020
-60.00000074,0.07428205,-0.22888880
-59.92000074,0.04809717,-0.25525680
-59.84000074,0.03936888,-0.28162480
-59.76000075,0.03064058,-0.29041410
-59.68000075,0.01321451,-0.30796230
-59.60000075,-0.01293985,-0.31675160
-59.52000075,-0.02166814,-0.32554090
-59.44000075,-0.03912473,-0.35190890
-59.36000075,-0.05658132,-0.36069830
-59.28000075,-0.07403790,-0.38706620
-59.20000075,-0.09149449,-0.39585560
-59.12000075,-0.10895110,-0.41343420
-59.04000075,-0.12640770,-0.43101290
-58.96000075,-0.13513600,-0.43101290
-58.88000075,-0.15259250,-0.43977170
-58.80000075,-0.17004910,-0.45735040
-58.72000075,-0.18747520,-0.46613970
-58.64000075,-0.19620350,-0.48371840
-58.56000075,-0.21366010,-0.49250770
-58.48000075,-0.23111670,-0.50129710
-58.40000075,-0.23984500,-0.50129710
-58.32000075,-0.24857330,-0.51008640
-58.24000075,-0.26602980,-0.51008640
-58.16000075,-0.28348640,-0.51887570
-58.08000076,-0.29221470,-0.51887570
-58.00000076,-0.30094300,-0.52766500
-57.92000076,-0.31839960,-0.52766500
-57.84000076,-0.31839960,-0.52766500
-57.76000076,-0.32712790,-0.52766500
-57.68000076,-0.33585620,-0.52766500
-57.60000076,-0.35331280,-0.52766500
-57.52000076,-0.36201060,-0.52766500
-57.44000076,-0.36201060,-0.51887570
-57.36000076,-0.37073890,-0.51887570
-57.28000076,-0.37073890,-0.51008640
-57.20000076,-0.38819550,-0.50129710
-57.12000076,-0.38819550,-0.50129710
-57.04000076,-0.38819550,-0.50129710
-56.96000076,-0.39692370,-0.49250770
-56.88000076,-0.40565200,-0.48371840
-56.80000076,-0.40565200,-0.46613970
-56.72000076,-0.40565200,-0.45735040
-56.64000076,-0.40565200,-0.44856100
-56.56000076,-0.39692370,-0.43101290
-56.48000077,-0.40565200,-0.42222360
-56.40000077,-0.40565200,-0.41343420
-56.32000077,-0.40565200,-0.40464490
-56.24000077,-0.40565200,-0.38706620
-56.16000077,-0.39692370,-0.36948760
-56.08000077,-0.38819550,-0.35190890
-56.00000077,-0.38819550,-0.33433030
-55.92000077,-0.38819550,-0.31675160
-55.84000077,-0.37946720,-0.29917290
-55.76000077,-0.37073890,-0.29041410
-55.68000077,-0.37073890,-0.28162480
-55.60000077,-0.36201060,-0.26404610
-55.52000077,-0.35331280,-0.24646750
-55.44000077,-0.35331280,-0.22009950
-55.36000077,-0.33585620,-0.20252080
-55.28000077,-0.32712790,-0.18494220
-55.20000077,-0.31839960,-0.16736350
-55.12000077,-0.30967130,-0.14981540
-55.04000077,-0.30094300,-0.13223670
-54.96000077,-0.28348640,-0.11465800
-54.88000077,-0.28348640,-0.08829005
-54.80000078,-0.26602980,-0.06192205
-54.72000078,-0.25730150,-0.04434339
-54.64000078,-0.24857330,-0.01797540
-54.56000078,-0.23111670,-0.00045778
-54.48000078,-0.21366010,0.01712088
-54.40000078,-0.20493180,0.03469954
-54.32000078,-0.19620350,0.05227821
-54.24000078,-0.17004910,0.07864620
-54.16000078,-0.16132080,0.09622486
-54.08000078,-0.14386430,0.13138220
